,energy,Sb-271-s,Sb-271-p,Sb-271-d,Sb-272-s,Sb-272-p,Sb-272-d,Te-1-s,Te-1-p,Te-1-d,Te-2-s,Te-2-p,Te-2-d
0,-14.242510630000002,0.0,0.0,0.0,0.0,0.0,0.0,0.0,0.0,0.0,0.0,0.0,0.0
1,-14.210510630000002,0.0,0.0,0.0,0.0,0.0,0.0,0.0,0.0,0.0,0.0,0.0,0.0
2,-14.17951063,0.0,0.0,0.0,0.0,0.0,0.0,0.0,0.0,0.0,0.0,0.0,0.0
3,-14.14751063,0.0,0.0,0.0,0.0,0.0,0.0,0.0,0.0,0.0,0.0,0.0,0.0
4,-14.11551063,0.0,0.0,0.0,0.0,0.0,0.0,0.0,0.0,0.0,0.0,0.0,0.0
5,-14.08451063,0.0,0.0,0.0,0.0,0.0,0.0,0.0,0.0,0.0,0.0,0.0,0.0
6,-14.05251063,0.0,0.0,0.0,0.0,0.0,0.0,0.0,0.0,0.0,0.0,0.0,0.0
7,-14.021510630000002,0.0,0.0,0.0,0.0,0.0,0.0,0.0,0.0,0.0,0.0,0.0,0.0
8,-13.989510630000002,0.0,0.0,0.0,0.0,0.0,0.0,0.0,0.0,0.0,0.0,0.0,0.0
9,-13.95851063,0.0,0.0,0.0,0.0,0.0,0.0,0.0,0.0,0.0,0.0,0.0,0.0
10,-13.92651063,0.0,0.0,0.0,0.0,0.0,0.0,0.0,0.0,0.0,0.0,0.0,0.0
11,-13.89451063,0.0,0.0,0.0,0.0,0.0,0.0,0.0,0.0,0.0,0.0,0.0,0.0
12,-13.86351063,0.0,0.0,0.0,0.0,0.0,0.0,0.0,0.0,0.0,0.0,0.0,0.0
13,-13.83151063,0.0,0.0,0.0,0.0,0.0,0.0,0.0,0.0,0.0,0.0,0.0,0.0
14,-13.800510630000002,0.0,0.0,0.0,0.0,0.0,0.0,0.0,0.0,0.0,0.0,0.0,0.0
15,-13.768510630000002,0.0,0.0,0.0,0.0,0.0,0.0,0.0,0.0,0.0,0.0,0.0,0.0
16,-13.736510630000001,0.0,0.0,0.0,0.0,0.0,0.0,0.0,0.0,0.0,0.0,0.0,0.0
17,-13.70551063,0.0,0.0,0.0,0.0,0.0,0.0,0.0,0.0,0.0,0.0,0.0,0.0
18,-13.673510629999999,0.0,0.0,0.0,0.0,0.0,0.0,0.0,0.0,0.0,0.0,0.0,0.0
19,-13.64251063,0.0,0.0,0.0,0.0,0.0,0.0,0.0,0.0,0.0,0.0,0.0,0.0
20,-13.61051063,0.0,0.0,0.0,0.0,0.0,0.0,0.0,0.0,0.0,0.0,0.0,0.0
21,-13.579510630000001,0.0,0.0,0.0,0.0,0.0,0.0,0.0,0.0,0.0,0.0,0.0,0.0
22,-13.547510630000001,0.0,0.0,0.0,0.0,0.0,0.0,0.0,0.0,0.0,0.0,0.0,0.0
23,-13.515510630000001,0.0,0.0,0.0,0.0,0.0,0.0,0.0,0.0,0.0,0.0,0.0,0.0
24,-13.48451063,0.0,0.0,0.0,0.0,0.0,0.0,0.0,0.0,0.0,0.0,0.0,0.0
25,-13.45251063,0.0,0.0,0.0,0.0,0.0,0.0,0.0,0.0,0.0,0.0,0.0,0.0
26,-13.42151063,0.0,0.0,0.0,0.0,0.0,0.0,0.0,0.0,0.0,0.0,0.0,0.0
27,-13.38951063,7.307e-20,3.63703e-22,4.4738699999999995e-23,2.959e-20,3.4968e-22,1.1603299999999999e-23,1.247e-19,4.0331e-22,4.3023e-23,1.645e-19,3.40212e-22,3.6697885300000006e-23
28,-13.358510630000001,5.254e-17,2.6145300000000004e-19,3.21669e-20,2.128e-17,2.5134e-19,8.3423e-21,8.968e-17,2.9004e-19,3.0935e-20,1.183e-16,2.44667e-19,2.63861927e-20
29,-13.326510630000001,3.151e-14,1.56772e-16,1.9291400000000002e-17,1.276e-14,1.5075999999999998e-16,5.0029999999999995e-18,5.378e-14,1.7395000000000002e-16,1.8551000000000002e-17,7.095e-14,1.46739e-16,1.58251955e-17
30,-13.294510630000001,8.633e-12,4.29646e-14,5.2858500000000005e-15,3.496e-12,4.1308e-14,1.3707800000000002e-15,1.473e-11,4.7645e-14,5.081800000000001e-15,1.944e-11,4.0197e-14,4.33615094e-15
31,-13.26351063,1.086e-09,5.4061e-12,6.651280000000001e-13,4.398e-10,5.1987e-12,1.72505e-13,1.853e-09,5.9917e-12,6.392299999999999e-13,2.445e-09,5.0593e-12,5.4559618e-13
32,-13.23151063,6.322e-08,3.14705e-10,3.87283e-11,2.559e-08,3.0286e-10,1.00393e-11,1.077e-07,3.4794000000000004e-10,3.7141e-11,1.422e-07,2.94726e-10,3.17500906e-11
33,-13.20051063,1.731e-06,8.6203e-09,1.061406e-09,7e-07,8.322e-09,2.74875e-10,2.932e-06,9.4599e-09,1.0102e-09,3.876e-06,8.1014e-09,8.6882601e-10
34,-13.16851063,2.353e-05,1.1726599999999999e-07,1.44981e-08,9.488e-06,1.1456e-07,3.73527e-09,3.909e-05,1.2643e-07,1.345e-08,5.186e-05,1.11439e-07,1.1768812e-08
35,-13.13651063,0.0001882,9.3184e-07,1.17527e-07,7.528e-05,9.402e-07,2.96931e-08,0.0002984,1.0083400000000002e-06,1.0287999999999999e-07,0.0003962,9.0977e-07,9.222765499999999e-08
36,-13.105510630000001,0.001169,5.6185000000000005e-06,7.44347e-07,0.0004643,5.909e-06,1.8102999999999997e-07,0.001795,7.0312000000000005e-06,6.3179e-07,0.002317,5.6213e-06,5.4275545e-07
37,-13.073510630000001,0.005654,2.5885e-05,3.6327300000000004e-06,0.002251,2.7633e-05,8.528699999999999e-07,0.009042,4.1785999999999996e-05,3.2951e-06,0.01101,2.56281e-05,2.4515796400000002e-06
38,-13.04251063,0.01661,7.2324e-05,1.06819e-05,0.006659,7.657000000000001e-05,2.43927e-06,0.02862,0.00014905999999999999,1.0769999999999999e-05,0.03272,6.9151e-05,6.7369444e-06
39,-13.01051063,0.02689,0.00011224800000000001,1.72921e-05,0.0108,0.00011619,3.82556e-06,0.05011,0.00029566,1.9580000000000002e-05,0.05287,0.00010384000000000001,1.00980065e-05
40,-12.97951063,0.02831,0.00011978399999999999,1.8340499999999998e-05,0.01102,0.00012002,3.83612e-06,0.05633,0.00042239,2.3845e-05,0.05163,0.000124784,1.00142808e-05
41,-12.94751063,0.03131,0.0001535,2.0459600000000003e-05,0.01046,0.00015359,3.97829e-06,0.05677,0.00059297,2.7370999999999996e-05,0.04978,0.000226067,1.30728673e-05
42,-12.91551063,0.04552,0.00026959,2.91464e-05,0.01104,0.00025646,5.22738e-06,0.05129,0.00068021,2.8115e-05,0.06783,0.00039725000000000003,2.2061476e-05
43,-12.884510630000001,0.06576,0.00057954,4.2910599999999995e-05,0.01529,0.00044594000000000003,7.3993000000000005e-06,0.04522,0.00064991,2.8117999999999997e-05,0.1046,0.00049137,2.8390247999999996e-05
44,-12.852510630000001,0.07569,0.0013705,5.7109e-05,0.02971,0.0008322000000000001,1.1175699999999999e-05,0.06666,0.0008753,4.2612000000000005e-05,0.1594,0.00050263,2.512856e-05
45,-12.82151063,0.08465,0.0026778,7.563900000000001e-05,0.05018,0.0014585,1.8719599999999996e-05,0.1087,0.0013484999999999999,6.6562e-05,0.2083,0.0005514000000000001,1.792985e-05
46,-12.78951063,0.103,0.0037014,9.4374e-05,0.06338,0.0020561,3.17754e-05,0.1393,0.0016721,8.163200000000001e-05,0.2012,0.0006808999999999999,1.44999e-05
47,-12.75851063,0.1012,0.0036993,9.0391e-05,0.06717,0.0023509,4.8152e-05,0.1603,0.0017992,9.080199999999999e-05,0.1555,0.0008307,1.69026e-05
48,-12.72651063,0.07761,0.0029143,6.3662e-05,0.0581,0.0023296999999999997,5.7671e-05,0.204,0.0019458,0.000107913,0.1238,0.0008791000000000001,2.68826e-05
49,-12.69451063,0.05704,0.0020231,3.9894e-05,0.03671,0.001964,5.0394799999999994e-05,0.2598,0.0021857,0.000128084,0.1324,0.0008114999999999999,3.83145e-05
50,-12.663510630000001,0.04545,0.0017063999999999998,4.0743e-05,0.02499,0.0014608,3.60214e-05,0.28,0.0025044,0.00013756999999999997,0.1932,0.0008135,4.42096e-05
51,-12.631510630000001,0.04697,0.002212,6.8274e-05,0.03332,0.0012185,2.98439e-05,0.254,0.0026821,0.00013076,0.2822,0.001006,5.4119e-05
52,-12.60051063,0.05591,0.0029942,9.2388e-05,0.04164,0.0011919,3.1294e-05,0.1968,0.0023458,0.00010203,0.3689,0.0013819000000000001,7.8692e-05
53,-12.56851063,0.05615,0.0038593,9.4052e-05,0.03449,0.0013580999999999999,3.51426e-05,0.1572,0.0018914,7.266099999999999e-05,0.4695,0.0018505000000000001,0.000114249
54,-12.53651063,0.05342,0.0046938,9.9121e-05,0.02213,0.0016767,3.77578e-05,0.1607,0.0015758,6.1476e-05,0.4818,0.0020367,0.000127705
55,-12.50551063,0.05918,0.0045089,0.000128009,0.01332,0.0017659,3.8607e-05,0.1885,0.0013271000000000001,6.6932e-05,0.3331,0.0020033,0.000106258
56,-12.47351063,0.05564,0.0037565000000000003,0.000166281,0.008449,0.0016805,4.0838e-05,0.2189,0.0012685,7.676499999999999e-05,0.218,0.0020827,8.686e-05
57,-12.442510630000001,0.03728,0.0037343000000000003,0.00018751199999999998,0.007586,0.0016755000000000003,4.6345e-05,0.2615,0.0012387000000000001,7.6446e-05,0.2561,0.001979,8.752099999999999e-05
58,-12.410510630000001,0.02421,0.0043828,0.00020099499999999998,0.01205,0.0018581,6.0534e-05,0.3135,0.001192,6.861899999999999e-05,0.3592,0.0017532,0.000105248
59,-12.37951063,0.02395,0.0052450000000000005,0.000240908,0.02407,0.0021454,8.4325e-05,0.3203,0.0011601,6.0641000000000004e-05,0.4988,0.0018135999999999998,0.000139123
60,-12.34751063,0.03313,0.005804,0.000278547,0.04085,0.0021412000000000002,0.000102103,0.2432,0.0009632,4.8952e-05,0.6456,0.0019405999999999998,0.00015642099999999999
61,-12.31551063,0.04887,0.0057680000000000006,0.000255694,0.05507,0.0018482000000000001,0.00010238399999999999,0.145,0.0008276,4.2741e-05,0.6777,0.0017219000000000002,0.000139746
62,-12.28451063,0.06549,0.0051186,0.00020073,0.06578,0.0016686000000000001,9.543099999999999e-05,0.1098,0.0011229,5.8473e-05,0.618,0.0014123,0.000116838
63,-12.25251063,0.0764,0.004296299999999999,0.000180271,0.07356,0.0019303999999999999,9.696599999999999e-05,0.1351,0.0016786,8.3618e-05,0.5515,0.0014073,0.00010175
64,-12.221510630000001,0.0725,0.0041748,0.00020046200000000002,0.07064,0.0023921,0.000100916,0.1693,0.0023273,0.000103783,0.4587,0.001629,0.00010113400000000001
65,-12.189510630000001,0.05683,0.0047656999999999995,0.00024141900000000004,0.05775,0.0026115,9.6944e-05,0.1778,0.003,0.000129225,0.3919,0.0018512000000000001,0.000120991
66,-12.15851063,0.05325,0.0051185,0.000309259,0.05358,0.0029278,0.000105492,0.1616,0.0030997000000000004,0.000140069,0.4027,0.002042,0.00015236200000000002
67,-12.12651063,0.06867,0.0047983,0.00038969600000000003,0.06885,0.0036972999999999997,0.00014017,0.152,0.0027578999999999998,0.000123602,0.5077,0.0024004,0.000205349
68,-12.09451063,0.08359,0.004789,0.000415776,0.09196,0.004548099999999999,0.00018214799999999998,0.1728,0.0030838999999999997,0.00013145,0.7757,0.0028555,0.000252657
69,-12.06351063,0.09962,0.0061896,0.00038356999999999996,0.09959,0.0052493,0.0002227,0.2663,0.0039369999999999995,0.00017677,0.9602,0.0029281000000000003,0.000233167
70,-12.03151063,0.1189,0.0081134,0.00033889000000000006,0.08411,0.0055075,0.000251922,0.4357,0.004373,0.00020643999999999998,0.8229,0.0027332,0.000185923
71,-12.00051063,0.121,0.0091535,0.0003008,0.06313,0.0051392,0.000261854,0.5923,0.004251,0.00019707999999999998,0.6715,0.0025348999999999997,0.000167122
72,-11.96851063,0.1129,0.009535,0.00027965,0.05253,0.0050252000000000005,0.00029248100000000003,0.6681,0.0038580000000000003,0.00017682,0.6477,0.0023322,0.00016364
73,-11.93651063,0.1074,0.009032700000000001,0.00027497000000000003,0.05117,0.0053333,0.000322951,0.6486,0.0034314,0.00016326,0.6009,0.002271,0.000171511
74,-11.90551063,0.09918,0.0082661,0.00031018,0.05347,0.005276599999999999,0.000276787,0.6249,0.0031846,0.00015818,0.5618,0.0024978,0.000211504
75,-11.87351063,0.08885,0.009056999999999999,0.00043661,0.06347,0.005083,0.000201729,0.7802,0.0032053999999999997,0.00017868,0.5848,0.0030636,0.000262096
76,-11.84251063,0.08084,0.011049999999999999,0.0006649900000000001,0.08297,0.005169999999999999,0.00017500399999999998,1.076,0.0031911,0.00020474,0.6373,0.0037418,0.000294006
77,-11.81051063,0.08448,0.012784,0.000901747,0.09072,0.005243,0.000194352,1.277,0.0031540000000000006,0.00021088,0.6229,0.0043384,0.000325135
78,-11.77951063,0.08862,0.013938999999999998,0.0009838,0.07085,0.005226,0.000253277,1.28,0.0033670999999999996,0.00021081,0.5043,0.0050089,0.00035534600000000004
79,-11.74751063,0.07252,0.015391,0.0008973490000000001,0.05491,0.005195999999999999,0.000329397,1.058,0.0035394,0.00020372,0.4083,0.0051068,0.000335206
80,-11.71551063,0.05572,0.016314000000000002,0.00083506,0.06395,0.005157,0.000371309,0.6898,0.0032532000000000004,0.00016795,0.4052,0.0044250999999999995,0.000269575
81,-11.68451063,0.05722,0.014995000000000001,0.000819597,0.07504,0.005163,0.00034049600000000003,0.4902,0.0031172000000000005,0.00012900999999999999,0.4442,0.004281,0.00022374300000000002
82,-11.65251063,0.06448,0.011741999999999999,0.000718872,0.0697,0.004772,0.00026697900000000003,0.5528,0.0040274,0.00011988,0.4595,0.005076,0.00020422799999999998
83,-11.62151063,0.06544,0.008382,0.000633195,0.05923,0.003804,0.000232288,0.6444,0.004952,0.00012831,0.453,0.006439,0.000193303
84,-11.58951063,0.06361,0.006398,0.00064855,0.06422,0.0029407,0.000249468,0.6481,0.004577,0.00015255,0.4383,0.00796,0.000220201
85,-11.55851063,0.0607,0.00631,0.00061552,0.08058,0.0027333,0.000251886,0.6748,0.0036704,0.00020131,0.419,0.009493000000000001,0.000327557
86,-11.52651063,0.05454,0.006855,0.00047761700000000006,0.0813,0.0029517,0.000214266,0.7559,0.0033276,0.00023968,0.3915,0.010577,0.000468479
87,-11.49451063,0.04632,0.007086,0.00036433300000000005,0.05972,0.0030825,0.000176828,0.8191,0.00319,0.00021289,0.3247,0.010341,0.00054852
88,-11.46351063,0.03739,0.007814,0.00036117699999999996,0.03961,0.0031757,0.00017192,0.8351,0.0028152000000000003,0.00015242,0.2789,0.010507,0.000565755
89,-11.43151063,0.02868,0.008518,0.000401215,0.04163,0.0035921999999999994,0.000201241,0.7027,0.0028770000000000002,0.00014241,0.3186,0.012857,0.000558093
90,-11.40051063,0.02196,0.0075910000000000005,0.00035640099999999995,0.05818,0.0041930000000000005,0.00022708399999999998,0.4615,0.0038639,0.00019212,0.4073,0.015753,0.000517111
91,-11.36851063,0.02046,0.0061119,0.00027989,0.072,0.004744,0.000248903,0.3358,0.0050035999999999995,0.00023958199999999998,0.4865,0.01745,0.00045578199999999995
92,-11.33651063,0.02576,0.0063549999999999995,0.00032664,0.0797,0.0053497,0.000287867,0.435,0.0053494,0.00026154,0.5375,0.017231999999999997,0.00042255600000000004
93,-11.30551063,0.03499,0.007568,0.00053575,0.07982,0.006272,0.00033483000000000005,0.6597,0.0057112000000000005,0.00029604,0.5913,0.015293000000000001,0.00043206699999999995
94,-11.27351063,0.03922,0.0077540000000000005,0.0008438599999999999,0.06607,0.007549999999999999,0.000383504,0.8037,0.0067346,0.00034459000000000003,0.6032,0.013597999999999999,0.0004963999999999999
95,-11.242510630000002,0.0342,0.007323,0.00106853,0.0518,0.008069,0.000417314,0.7601,0.0073995,0.00035304,0.501,0.012283,0.000583486
96,-11.210510630000002,0.0294,0.006856999999999999,0.00105096,0.05674,0.007223,0.00043950799999999997,0.533,0.0068731999999999994,0.00028977,0.4499,0.011569,0.0006101079999999999
97,-11.17951063,0.0316,0.007109,0.0008861399999999999,0.09969,0.007034,0.00047674299999999996,0.2941,0.005711600000000001,0.00020965,0.5176,0.011791,0.0005910569999999999
98,-11.14751063,0.03391,0.008893000000000002,0.00073664,0.1952,0.009102,0.0005243870000000001,0.1923,0.005449000000000001,0.00021575700000000001,0.5481,0.011843,0.000597828
99,-11.11551063,0.03278,0.010979,0.0006727299999999999,0.324,0.012336,0.00058423,0.1891,0.0066795,0.000314877,0.5221,0.011961,0.000601478
100,-11.08451063,0.03641,0.011319,0.00064305,0.3814,0.014485999999999999,0.0006581339999999999,0.2138,0.0083174,0.000394601,0.524,0.0126,0.0005472399999999999
101,-11.05251063,0.04318,0.009507999999999999,0.00058038,0.2862,0.013837,0.000670812,0.2042,0.0084102,0.00037094800000000007,0.561,0.01381,0.000475122
102,-11.021510630000002,0.04227,0.007402,0.000526237,0.16,0.011141999999999999,0.000592133,0.1574,0.006933,0.00029705000000000004,0.5479,0.014676,0.00045527100000000004
103,-10.989510630000002,0.0472,0.006007,0.0004841,0.119,0.010029,0.000570766,0.1438,0.0064782,0.000286726,0.3918,0.012672,0.00042964
104,-10.95851063,0.06939,0.004828,0.00042762000000000003,0.1221,0.010744,0.000569745,0.1881,0.007682,0.00033817200000000003,0.2011,0.008544,0.00036075100000000003
105,-10.92651063,0.09464,0.0045234,0.00040728,0.1162,0.010631,0.00046376800000000004,0.2259,0.0089203,0.000346274,0.1537,0.0052373,0.000307969
106,-10.89451063,0.1212,0.0055581,0.0005105200000000001,0.1217,0.010771,0.000364722,0.2313,0.010652499999999999,0.00033343399999999997,0.2412,0.0035776000000000002,0.00031220300000000005
107,-10.86351063,0.1409,0.0062625,0.0007040799999999999,0.1402,0.01112,0.00032805100000000005,0.2802,0.01216,0.00033645200000000005,0.3156,0.0032786,0.000338455
108,-10.83151063,0.1393,0.0056966,0.00085522,0.1486,0.009708,0.00031130999999999997,0.3338,0.01136,0.00029035599999999997,0.3056,0.004216299999999999,0.000333313
109,-10.80051063,0.1387,0.0057142,0.00093621,0.1693,0.007981,0.00037184,0.292,0.009478,0.000218129,0.2776,0.0059916,0.000325435
110,-10.76851063,0.1384,0.0065149000000000006,0.0009606,0.1801,0.007219,0.000511971,0.2459,0.0088261,0.000215437,0.2362,0.006617,0.000315367
111,-10.736510630000001,0.1058,0.0062413,0.00083051,0.1397,0.006614,0.000590489,0.2854,0.0092969,0.000299557,0.1526,0.0050874,0.000253393
112,-10.705510630000001,0.06577,0.0050478,0.000566498,0.09877,0.006000999999999999,0.000555456,0.3381,0.009433,0.00038026399999999995,0.07742,0.0034862,0.00017226699999999998
113,-10.67351063,0.05488,0.0039692,0.000347771,0.1271,0.006868000000000001,0.000507033,0.3658,0.010074,0.000428775,0.05688,0.0035814,0.000157924
114,-10.64251063,0.06898,0.0036836,0.00024755,0.2329,0.00991,0.000545969,0.4241,0.011453,0.0005544269999999999,0.1126,0.005116,0.000221317
115,-10.61051063,0.09458,0.004594,0.00024085000000000003,0.3053,0.012855,0.0006643220000000001,0.5204,0.012268000000000001,0.0007729389999999999,0.2593,0.006946,0.000321716
116,-10.579510630000001,0.1207,0.005799,0.00033580999999999997,0.2358,0.012891999999999999,0.0007367360000000001,0.5456,0.0123,0.0009361249999999999,0.3909,0.007738999999999999,0.000419163
117,-10.547510630000001,0.1417,0.005985,0.00058982,0.122,0.009977999999999999,0.000664813,0.4724,0.011857,0.001062702,0.3927,0.007163000000000001,0.00045229
118,-10.515510630000001,0.1488,0.005775000000000001,0.00087411,0.0754,0.007075,0.000594437,0.3959,0.010662000000000001,0.0011490699999999999,0.3501,0.0061736000000000004,0.00042207
119,-10.48451063,0.1218,0.0057090000000000005,0.000848206,0.08308,0.007175,0.000660669,0.3406,0.008705000000000001,0.0009471299999999999,0.2824,0.006620000000000001,0.00044210999999999995
120,-10.45251063,0.0781,0.005153,0.00059498,0.1061,0.009666,0.0008589769999999999,0.3276,0.007011,0.00057458,0.1821,0.008785999999999999,0.000522892
121,-10.42151063,0.0554,0.0051364,0.00044250699999999997,0.1105,0.011343,0.001044786,0.4308,0.0058709999999999995,0.000346409,0.131,0.010118,0.000558027
122,-10.38951063,0.06496,0.0062009,0.00045647,0.09112,0.010768,0.001023951,0.5692,0.0051,0.00031843700000000003,0.1392,0.009965,0.000576449
123,-10.358510630000001,0.1069,0.006916,0.0005635,0.07667,0.010511,0.0008385140000000001,0.5655,0.004897,0.00043254999999999997,0.2048,0.010719000000000001,0.0006564510000000001
124,-10.326510630000001,0.1648,0.006797599999999999,0.00066466,0.08649,0.013014999999999999,0.000643046,0.4389,0.005379,0.00059369,0.3278,0.011871,0.000773675
125,-10.294510630000001,0.1911,0.0059839,0.00067641,0.1063,0.014518,0.000516902,0.3289,0.006036,0.00063373,0.3994,0.012244999999999999,0.0009145510000000001
126,-10.26351063,0.1654,0.0042055,0.000584667,0.1381,0.011902,0.000438973,0.2574,0.007004,0.00055542,0.4001,0.012935,0.0010455
127,-10.23151063,0.1223,0.0027894,0.000489866,0.1876,0.009485,0.00043915299999999996,0.1909,0.008386,0.00051844,0.4427,0.013358,0.001178511
128,-10.20051063,0.09982,0.0026368,0.00043286199999999995,0.1929,0.0090847,0.000562715,0.1369,0.008971,0.00048043,0.4596,0.012171999999999999,0.00134899
129,-10.16851063,0.1116,0.0032212,0.0003709179999999999,0.1401,0.009015699999999998,0.0007283280000000001,0.108,0.009396999999999999,0.00041399,0.3587,0.011578999999999999,0.00153374
130,-10.13651063,0.1432,0.003881,0.000307481,0.1039,0.008904,0.0007945069999999999,0.104,0.009727,0.00038427,0.2126,0.013183,0.0015836499999999998
131,-10.105510630000001,0.1692,0.00427,0.00029984099999999996,0.1189,0.008525999999999999,0.0007749780000000001,0.1079,0.009507,0.00041614999999999995,0.1389,0.016087,0.00138605
132,-10.073510630000001,0.1829,0.0043064999999999996,0.000362254,0.1474,0.008074999999999999,0.000728866,0.1092,0.010432,0.00058306,0.1667,0.018895000000000002,0.0010833499999999999
133,-10.04251063,0.195,0.0043064999999999996,0.00044131,0.163,0.00792,0.0006432219999999999,0.1284,0.012882000000000001,0.00090118,0.2306,0.019669000000000002,0.0009399600000000001
134,-10.01051063,0.1995,0.004396,0.000475871,0.1751,0.008125,0.0005600049999999999,0.1692,0.015554,0.00116967,0.235,0.018837,0.0009709200000000001
135,-9.97951063,0.2038,0.0044740000000000005,0.000478891,0.2028,0.009112,0.00048063800000000003,0.1885,0.017766,0.00124201,0.1869,0.017623,0.00102337
136,-9.94751063,0.2369,0.004476,0.000497244,0.2347,0.010702,0.00040587999999999996,0.1572,0.018304,0.00123799,0.1366,0.016544,0.00109151
137,-9.91551063,0.293,0.004648,0.0005119149999999999,0.2486,0.012233,0.00042781000000000004,0.1071,0.017836,0.00121756,0.08717,0.016017,0.0011688900000000001
138,-9.884510630000001,0.3606,0.006777999999999999,0.0005757410000000001,0.2707,0.014955,0.00061576,0.07611,0.017893,0.00112934,0.0528,0.014891,0.00113642
